0.3587
0.3587
0.3587
0.3587
0.3587
0.3587
0.3587
0.3597
0.3597
0.3597
0.3597
0.3597
0.3597
0.3607
0.3607
0.3607
0.3607
0.3607
0.3607
0.3617
0.3656
0.3695
0.3744
0.3783
0.3822
0.3861
0.391
0.3988
0.4076
0.4164
0.4194
0.4194
0.4194
0.4194
0.4115
0.4037
0.3949
0.3871
0.3793
0.3705
0.3627
0.3587
0.3587
0.3587
0.3587
0.3587
0.3587
0.3587
0.3607
0.3695
0.3773
0.3851
0.437
0.5269
0.6168
0.7077
0.7977
0.8876
0.9775
1
0.7048
0.4096
0.1144
0
0.0655
0.131
0.1965
0.2346
0.2678
0.3011
0.3304
0.3382
0.346
0.3548
0.3587
0.3587
0.3587
0.3587
0.3587
0.3587
0.3587
0.3597
0.3636
0.3675
0.3715
0.3763
0.3793
0.3842
0.3881
0.4018
0.4184
0.434
0.4506
0.4673
0.4839
0.5005
0.5093
0.5093
0.5093
0.5093
0.5034
0.4956
0.4878
0.478
0.4536
0.4282
0.4037
0.3861
0.3783
0.3695
0.3617
0.3607
0.3597
0.3597
0.3587
0.3587
0.3587
0.3587
0.3587
0.3587
0.3587
0.3587
0.3587
0.3587
0.3587
0.3587
0.3587
0.3587
0.3587
0.3587
0.3587
0.3587
0.3597
0.3597
0.3597
0.3597
0.3597
0.3597
0.3607
0.3607
0.3607
0.3607
0.3607
0.3607
0.3617
0.3656
0.3695
0.3744
0.3783
0.3822
0.3861
0.391
0.3988
0.4076
0.4164
0.4194
0.4194
0.4194
0.4194
0.4115
0.4037
0.3949
0.3871
0.3793
0.3705
0.3627
0.3587
0.3587
0.3587
0.3587
0.3587
0.3587
0.3587
0.3607
0.3695
0.3773
0.3851
0.437
0.5269
0.6168
0.7077
0.7977
0.8876
0.9775
1
0.7048
0.4096
0.1144
0
0.0655
0.131
0.1965
0.2346
0.2678
0.3011
0.3304
0.3382
0.346
0.3548
0.3587
0.3587
0.3587
0.3587
0.3587
0.3587
0.3587
0.3597
0.3636
0.3675
0.3715
0.3763
0.3793
0.3842
0.3881
0.4018
0.4184
0.434
0.4506
0.4673
0.4839
0.5005
0.5093
0.5093
0.5093
0.5093
0.5034
0.4956
0.4878
0.478
0.4536
0.4282
0.4037
0.3861
0.3783
0.3695
0.3617
0.3607
0.3597
0.3597
0.3587
0.3587
0.3587
0.3587
0.3587
0.3587
0.3587
0.3587
0.3587
0.3587
0.3587
0.3587
0.3587
0.3587
0.3587
0.3587
0.3587
0.3587
0.3597
0.3597
0.3597
0.3597
0.3597
0.3597
0.3607
0.3607
0.3607
0.3607
0.3607
0.3607
0.3617
0.3656
0.3695
0.3744
0.3783
0.3822
0.3861
0.391
0.3988
0.4076
0.4164
0.4194
0.4194
0.4194
0.4194
0.4115
0.4037
0.3949
0.3871
0.3793
0.3705
0.3627
0.3587
0.3587
0.3587
0.3587
0.3587
0.3587
0.3587
0.3607
0.3695
0.3773
0.3851
0.437
0.5269
0.6168
0.7077
0.7977
0.8876
0.9775
1
0.7048
0.4096
0.1144
0
0.0655
0.131
0.1965
0.2346
0.2678
0.3011
0.3304
0.3382
0.346
0.3548
0.3587
0.3587
0.3587
0.3587
0.3587
0.3587
0.3587
0.3597
0.3636
0.3675
0.3715
0.3763
0.3793
0.3842
0.3881
0.4018
0.4184
0.434
0.4506
0.4673
0.4839
0.5005
0.5093
0.5093
0.5093
0.5093
0.5034
0.4956
0.4878
0.478
0.4536
0.4282
0.4037
0.3861
0.3783
0.3695
0.3617
0.3607
0.3597
0.3597
0.3587
0.3587
0.3587
0.3587
0.3587
0.3587
0.3587
0.3587
0.3587
0.3587
0.3587
0.3587
0.3587
0.3587
0.3587
0.3587
0.3587
0.3587
0.3597
0.3597
0.3597
0.3597
0.3597
0.3597
0.3607
0.3607
0.3607
0.3607
0.3607
0.3607
0.3617
0.3656
0.3695
0.3744
0.3783
0.3822
0.3861
0.391
0.3988
0.4076
0.4164
0.4194
0.4194
0.4194
0.4194
0.4115
0.4037
0.3949
0.3871
0.3793
0.3705
0.3627
0.3587
0.3587
0.3587
0.3587
0.3587
0.3587
0.3587
0.3607
0.3695
0.3773
0.3851
0.437
0.5269
0.6168
0.7077
0.7977
0.8876
0.9775
1
0.7048
0.4096
0.1144
0
0.0655
0.131
0.1965
0.2346
0.2678
0.3011
0.3304
0.3382
0.346
0.3548
0.3587
0.3587
0.3587
0.3587
0.3587
0.3587
0.3587
0.3597
0.3636
0.3675
0.3715
0.3763
0.3793
0.3842
0.3881
0.4018
0.4184
0.434
0.4506
0.4673
0.4839
0.5005
0.5093
0.5093
0.5093
0.5093
0.5034
0.4956
0.4878
0.478
0.4536
0.4282
0.4037
0.3861
0.3783
0.3695
0.3617
0.3607
0.3597
0.3597
0.3587
0.3587
0.3587
0.3587
0.3587
0.3587
0.3587
0.3587
0.3587
0.3587
0.3587
0.3587
0.3587
0.3587
0.3587
0.3587
0.3587
0.3587
0.3597
0.3597
0.3597
0.3597
0.3597
0.3597
0.3607
0.3607
0.3607
0.3607
0.3607
0.3607
0.3617
0.3656
0.3695
0.3744
0.3783
0.3822
0.3861
0.391
0.3988
0.4076
0.4164
0.4194
0.4194
0.4194
0.4194
0.4115
0.4037
0.3949
0.3871
0.3793
0.3705
0.3627
0.3587
0.3587
0.3587
0.3587
0.3587
0.3587
0.3587
0.3607
0.3695
0.3773
0.3851
0.437
0.5269
0.6168
0.7077
0.7977
0.8876
0.9775
1
0.7048
0.4096
0.1144
0
0.0655
0.131
0.1965
0.2346
0.2678
0.3011
0.3304
0.3382
0.346
0.3548
0.3587
0.3587
0.3587
0.3587
0.3587
0.3587
0.3587
0.3597
0.3636
0.3675
0.3715
0.3763
0.3793
0.3842
0.3881
0.4018
0.4184
0.434
0.4506
0.4673
0.4839
0.5005
0.5093
0.5093
0.5093
0.5093
0.5034
0.4956
0.4878
0.478
0.4536
0.4282
0.4037
0.3861
0.3783
0.3695
0.3617
0.3607
0.3597
0.3597
0.3587
0.3587
0.3587
0.3587
0.3587
0.3587
0.3587
0.3587
0.3587
0.3587
0.3587
0.3587
0.3587
0.3587
0.3587
0.3587
0.3587
0.3587
0.3597
0.3597
0.3597
0.3597
0.3597
0.3597
0.3607
0.3607
0.3607
0.3607
0.3607
0.3607
0.3617
0.3656
0.3695
0.3744
0.3783
0.3822
0.3861
0.391
0.3988
0.4076
0.4164
0.4194
0.4194
0.4194
0.4194
0.4115
0.4037
0.3949
0.3871
0.3793
0.3705
0.3627
0.3587
0.3587
0.3587
0.3587
0.3587
0.3587
0.3587
0.3607
0.3695
0.3773
0.3851
0.437
0.5269
0.6168
0.7077
0.7977
0.8876
0.9775
1
0.7048
0.4096
0.1144
0
0.0655
0.131
0.1965
0.2346
0.2678
0.3011
0.3304
0.3382
0.346
0.3548
0.3587
0.3587
0.3587
0.3587
0.3587
0.3587
0.3587
0.3597
0.3636
0.3675
0.3715
0.3763
0.3793
0.3842
0.3881
0.4018
0.4184
0.434
0.4506
0.4673
0.4839
0.5005
0.5093
0.5093
0.5093
0.5093
0.5034
0.4956
0.4878
0.478
0.4536
0.4282
0.4037
0.3861
0.3783
0.3695
0.3617
0.3607
0.3597
0.3597
0.3587
0.3587
0.3587
0.3587
0.3587
0.3587
0.3587
0.3587
0.3587
0.3587
0.3587
0.3587
0.3587
0.3587
0.3587
0.3587
0.3587
0.3587
0.3597
0.3597
0.3597
0.3597
0.3597
0.3597
0.3607
0.3607
0.3607
0.3607
0.3607
0.3607
0.3617
0.3656
0.3695
0.3744
0.3783
0.3822
0.3861
0.391
0.3988
0.4076
0.4164
0.4194
0.4194
0.4194
0.4194
0.4115
0.4037
0.3949
0.3871
0.3793
0.3705
0.3627
0.3587
0.3587
0.3587
0.3587
0.3587
0.3587
0.3587
0.3607
0.3695
0.3773
0.3851
0.437
0.5269
0.6168
0.7077
0.7977
0.8876
0.9775
1
0.7048
0.4096
0.1144
0
0.0655
0.131
0.1965
0.2346
0.2678
0.3011
0.3304
0.3382
0.346
0.3548
0.3587
0.3587
0.3587
0.3587
0.3587
0.3587
0.3587
0.3597
0.3636
0.3675
0.3715
0.3763
0.3793
0.3842
0.3881
0.4018
0.4184
0.434
0.4506
0.4673
0.4839
0.5005
0.5093
0.5093
0.5093
0.5093
0.5034
0.4956
0.4878
0.478
0.4536
0.4282
0.4037
0.3861
0.3783
0.3695
0.3617
0.3607
0.3597
0.3597
0.3587
0.3587
0.3587
0.3587
0.3587
0.3587
0.3587
0.3587
0.3587
0.3587
0.3587
0.3587
0.3587
0.3587
0.3587
0.3587
0.3587
0.3587
0.3597
0.3597
0.3597
0.3597
0.3597
0.3597
0.3607
0.3607
0.3607
0.3607
0.3607
0.3607
0.3617
0.3656
0.3695
0.3744
0.3783
0.3822
0.3861
0.391
0.3988
0.4076
0.4164
0.4194
0.4194
0.4194
0.4194
0.4115
0.4037
0.3949
0.3871
0.3793
0.3705
0.3627
0.3587
0.3587
0.3587
0.3587
0.3587
0.3587
0.3587
0.3607
0.3695
0.3773
0.3851
0.437
0.5269
0.6168
0.7077
0.7977
0.8876
0.9775
1
0.7048
0.4096
0.1144
0
0.0655
0.131
0.1965
0.2346
0.2678
0.3011
0.3304
0.3382
0.346
0.3548
0.3587
0.3587
0.3587
0.3587
0.3587
0.3587
0.3587
0.3597
0.3636
0.3675
0.3715
0.3763
0.3793
0.3842
0.3881
0.4018
0.4184
0.434
0.4506
0.4673
0.4839
0.5005
0.5093
0.5093
0.5093
0.5093
0.5034
0.4956
0.4878
0.478
0.4536
0.4282
0.4037
0.3861
0.3783
0.3695
0.3617
0.3607
0.3597
0.3597
0.3587
0.3587
0.3587
0.3587
0.3587
0.3587
0.3587
0.3587
0.3587
0.3587
0.3587
0.3587
0.3587
0.3587
0.3587
0.3587
0.3587
0.3587
0.3597
0.3597
0.3597
0.3597
0.3597
0.3597
0.3607
0.3607
0.3607
0.3607
0.3607
0.3607
0.3617
0.3656
0.3695
0.3744
0.3783
0.3822
0.3861
0.391
0.3988
0.4076
0.4164
0.4194
0.4194
0.4194
0.4194
0.4115
0.4037
0.3949
0.3871
0.3793
0.3705
0.3627
0.3587
0.3587
0.3587
0.3587
0.3587
0.3587
0.3587
0.3607
0.3695
0.3773
0.3851
0.437
0.5269
0.6168
0.7077
0.7977
0.8876
0.9775
1
0.7048
0.4096
0.1144
0
0.0655
0.131
0.1965
0.2346
0.2678
0.3011
0.3304
0.3382
0.346
0.3548
0.3587
0.3587
0.3587
0.3587
0.3587
0.3587
0.3587
0.3597
0.3636
0.3675
0.3715
0.3763
0.3793
0.3842
0.3881
0.4018
0.4184
0.434
0.4506
0.4673
0.4839
0.5005
0.5093
0.5093
0.5093
0.5093
0.5034
0.4956
0.4878
0.478
0.4536
0.4282
0.4037
0.3861
0.3783
0.3695
0.3617
0.3607
0.3597
0.3597
0.3587
0.3587
0.3587
0.3587
0.3587
0.3587
0.3587
0.3587
0.3587
0.3587
0.3587
0.3587
0.3587
0.3587
0.3587
0.3587
0.3587
0.3587
0.3597
0.3597
0.3597
0.3597
0.3597
0.3597
0.3607
0.3607
0.3607
0.3607
0.3607
0.3607
0.3617
0.3656
0.3695
0.3744
0.3783
0.3822
0.3861
0.391
0.3988
0.4076
0.4164
0.4194
0.4194
0.4194
0.4194
0.4115
0.4037
0.3949
0.3871
0.3793
0.3705
0.3627
0.3587
0.3587
0.3587
0.3587
0.3587
0.3587
0.3587
0.3607
0.3695
0.3773
0.3851
0.437
0.5269
0.6168
0.7077
0.7977
0.8876
0.9775
1
0.7048
0.4096
0.1144
0
0.0655
0.131
0.1965
0.2346
0.2678
0.3011
0.3304
0.3382
0.346
0.3548
0.3587
0.3587
0.3587
0.3587
0.3587
0.3587
0.3587
0.3597
0.3636
0.3675
0.3715
0.3763
0.3793
0.3842
0.3881
0.4018
0.4184
0.434
0.4506
0.4673
0.4839
0.5005
0.5093
0.5093
0.5093
0.5093
0.5034
0.4956
0.4878
0.478
0.4536
0.4282
0.4037
0.3861
0.3783
0.3695
0.3617
0.3607
0.3597
0.3597
0.3587
0.3587
0.3587
0.3587
0.3587
0.3587
0.3587
0.3587
0.3587
0.3587
0.3587
0.3587
0.3587
0.3587
0.3587
0.3587
0.3587
0.3587
0.3597
0.3597
0.3597
0.3597
0.3597
0.3597
0.3607
0.3607
0.3607
0.3607
0.3607
0.3607
0.3617
0.3656
0.3695
0.3744
0.3783
0.3822
0.3861
0.391
0.3988
0.4076
0.4164
0.4194
0.4194
0.4194
0.4194
0.4115
0.4037
0.3949
0.3871
0.3793
0.3705
0.3627
0.3587
0.3587
0.3587
0.3587
0.3587
0.3587
0.3587
0.3607
0.3695
0.3773
0.3851
0.437
0.5269
0.6168
0.7077
0.7977
0.8876
0.9775
1
0.7048
0.4096
0.1144
0
0.0655
0.131
0.1965
0.2346
0.2678
0.3011
0.3304
0.3382
0.346
0.3548
0.3587
0.3587
0.3587
0.3587
0.3587
0.3587
0.3587
0.3597
0.3636
0.3675
0.3715
0.3763
0.3793
0.3842
0.3881
0.4018
0.4184
0.434
0.4506
0.4673
0.4839
0.5005
0.5093
0.5093
0.5093
0.5093
0.5034
0.4956
0.4878
0.478
0.4536
0.4282
0.4037
0.3861
0.3783
0.3695
0.3617
0.3607
0.3597
0.3597
0.3587
0.3587
0.3587
0.3587
0.3587
0.3587
0.3587
0.3587
0.3587
0.3587
0.3587
0.3587
0.3587
0.3587
0.3587
0.3587
0.3587
0.3587
0.3597
0.3597
0.3597
0.3597
0.3597
0.3597
0.3607
0.3607
0.3607
0.3607
0.3607
0.3607
0.3617
0.3656
0.3695
0.3744
0.3783
0.3822
0.3861
0.391
0.3988
0.4076
0.4164
0.4194
0.4194
0.4194
0.4194
0.4115
0.4037
0.3949
0.3871
0.3793
0.3705
0.3627
0.3587
0.3587
0.3587
0.3587
0.3587
0.3587
0.3587
0.3607
0.3695
0.3773
0.3851
0.437
0.5269
0.6168
0.7077
0.7977
0.8876
0.9775
1
0.7048
0.4096
0.1144
0
0.0655
0.131
0.1965
0.2346
0.2678
0.3011
0.3304
0.3382
0.346
0.3548
0.3587
0.3587
0.3587
0.3587
0.3587
0.3587
0.3587
0.3597
0.3636
0.3675
0.3715
0.3763
0.3793
0.3842
0.3881
0.4018
0.4184
0.434
0.4506
0.4673
0.4839
0.5005
0.5093
0.5093
0.5093
0.5093
0.5034
0.4956
0.4878
0.478
0.4536
0.4282
0.4037
0.3861
0.3783
0.3695
0.3617
0.3607
0.3597
0.3597
0.3587
0.3587
0.3587
0.3587
0.3587
0.3587
0.3587
0.3587
0.3587
0.3587
0.3587
0.3587
0.3587
0.3587
0.3587
0.3587
0.3587
0.3587
0.3597
0.3597
0.3597
0.3597
0.3597
0.3597
0.3607
0.3607
0.3607
0.3607
0.3607
0.3607
0.3617
0.3656
0.3695
0.3744
0.3783
0.3822
0.3861
0.391
0.3988
0.4076
0.4164
0.4194
0.4194
0.4194
0.4194
0.4115
0.4037
0.3949
0.3871
0.3793
0.3705
0.3627
0.3587
0.3587
0.3587
0.3587
0.3587
0.3587
0.3587
0.3607
0.3695
0.3773
0.3851
0.437
0.5269
0.6168
0.7077
0.7977
0.8876
0.9775
1
0.7048
0.4096
0.1144
0
0.0655
0.131
0.1965
0.2346
0.2678
0.3011
0.3304
0.3382
0.346
0.3548
0.3587
0.3587
0.3587
0.3587
0.3587
0.3587
0.3587
0.3597
0.3636
0.3675
0.3715
0.3763
0.3793
0.3842
0.3881
0.4018
0.4184
0.434
0.4506
0.4673
0.4839
0.5005
0.5093
0.5093
0.5093
0.5093
0.5034
0.4956
0.4878
0.478
0.4536
0.4282
0.4037
0.3861
0.3783
0.3695
0.3617
0.3607
0.3597
0.3597
0.3587
0.3587
0.3587
0.3587
0.3587
0.3587
0.3587
0.3587
0.3587
0.3587
0.3587
0.3587
0.3587
0.3587
0.3587
0.3587
0.3587
0.3587
0.3597
0.3597
0.3597
0.3597
0.3597
0.3597
0.3607
0.3607
0.3607
0.3607
0.3607
0.3607
0.3617
0.3656
0.3695
0.3744
0.3783
0.3822
0.3861
0.391
0.3988
0.4076
0.4164
0.4194
0.4194
0.4194
0.4194
0.4115
0.4037
0.3949
0.3871
0.3793
0.3705
0.3627
0.3587
0.3587
0.3587
0.3587
0.3587
0.3587
0.3587
0.3607
0.3695
0.3773
0.3851
0.437
0.5269
0.6168
0.7077
0.7977
0.8876
0.9775
1
0.7048
0.4096
0.1144
0
0.0655
0.131
0.1965
0.2346
0.2678
0.3011
0.3304
0.3382
0.346
0.3548
0.3587
0.3587
0.3587
0.3587
0.3587
0.3587
0.3587
0.3597
0.3636
0.3675
0.3715
0.3763
0.3793
0.3842
0.3881
0.4018
0.4184
0.434
0.4506
0.4673
0.4839
0.5005
0.5093
0.5093
0.5093
0.5093
0.5034
0.4956
0.4878
0.478
0.4536
0.4282
0.4037
0.3861
0.3783
0.3695
0.3617
0.3607
0.3597
0.3597
0.3587
0.3587
0.3587
0.3587
0.3587
0.3587
0.3587
0.3587
0.3587
0.3587
0.3587
0.3587
0.3587
0.3587
0.3587
0.3587
0.3587
0.3587
0.3597
0.3597
0.3597
0.3597
0.3597
0.3597
0.3607
0.3607
0.3607
0.3607
0.3607
0.3607
0.3617
0.3656
0.3695
0.3744
0.3783
0.3822
0.3861
0.391
0.3988
0.4076
0.4164
0.4194
0.4194
0.4194
0.4194
0.4115
0.4037
0.3949
0.3871
0.3793
0.3705
0.3627
0.3587
0.3587
0.3587
0.3587
0.3587
0.3587
0.3587
0.3607
0.3695
0.3773
0.3851
0.437
0.5269
0.6168
0.7077
0.7977
0.8876
0.9775
1
0.7048
0.4096
0.1144
0
0.0655
0.131
0.1965
0.2346
0.2678
0.3011
0.3304
0.3382
0.346
0.3548
0.3587
0.3587
0.3587
0.3587
0.3587
0.3587
0.3587
0.3597
0.3636
0.3675
0.3715
0.3763
0.3793
0.3842
0.3881
0.4018
0.4184
0.434
0.4506
0.4673
0.4839
0.5005
0.5093
0.5093
0.5093
0.5093
0.5034
0.4956
0.4878
0.478
0.4536
0.4282
0.4037
0.3861
0.3783
0.3695
0.3617
0.3607
0.3597
0.3597
0.3587
0.3587
0.3587
0.3587
0.3587
0.3587
0.3587
0.3587
0.3587
0.3587
0.3587
0.3587
0.3587
0.3587
0.3587
0.3587
0.3587
0.3587
0.3597
0.3597
0.3597
0.3597
0.3597
0.3597
0.3607
0.3607
0.3607
0.3607
0.3607
0.3607
0.3617
0.3656
0.3695
0.3744
0.3783
0.3822
0.3861
0.391
0.3988
0.4076
0.4164
0.4194
0.4194
0.4194
0.4194
0.4115
0.4037
0.3949
0.3871
0.3793
0.3705
0.3627
0.3587
0.3587
0.3587
0.3587
0.3587
0.3587
0.3587
0.3607
0.3695
0.3773
0.3851
0.437
0.5269
0.6168
0.7077
0.7977
0.8876
0.9775
1
0.7048
0.4096
0.1144
0
0.0655
0.131
0.1965
0.2346
0.2678
0.3011
0.3304
0.3382
0.346
0.3548
0.3587
0.3587
0.3587
0.3587
0.3587
0.3587
0.3587
0.3597
0.3636
0.3675
0.3715
0.3763
0.3793
0.3842
0.3881
0.4018
0.4184
0.434
0.4506
0.4673
0.4839
0.5005
0.5093
0.5093
0.5093
0.5093
0.5034
0.4956
0.4878
0.478
0.4536
0.4282
0.4037
0.3861
0.3783
0.3695
0.3617
0.3607
0.3597
0.3597
0.3587
0.3587
0.3587
0.3587
0.3587
0.3587
0.3587
0.3587
0.3587
0.3587
0.3587
0.3587
0.3587
0.3587
0.3587
0.3587
0.3587
0.3587
0.3597
0.3597
0.3597
0.3597
0.3597
0.3597
0.3607
0.3607
0.3607
0.3607
0.3607
0.3607
0.3617
0.3656
0.3695
0.3744
0.3783
0.3822
0.3861
0.391
0.3988
0.4076
0.4164
0.4194
0.4194
0.4194
0.4194
0.4115
0.4037
0.3949
0.3871
0.3793
0.3705
0.3627
0.3587
0.3587
0.3587
0.3587
0.3587
0.3587
0.3587
0.3607
0.3695
0.3773
0.3851
0.437
0.5269
0.6168
0.7077
0.7977
0.8876
0.9775
1
0.7048
0.4096
0.1144
0
0.0655
0.131
0.1965
0.2346
0.2678
0.3011
0.3304
0.3382
0.346
0.3548
0.3587
0.3587
0.3587
0.3587
0.3587
0.3587
0.3587
0.3597
0.3636
0.3675
0.3715
0.3763
0.3793
0.3842
0.3881
0.4018
0.4184
0.434
0.4506
0.4673
0.4839
0.5005
0.5093
0.5093
0.5093
0.5093
0.5034
0.4956
0.4878
0.478
0.4536
0.4282
0.4037
0.3861
0.3783
0.3695
0.3617
0.3607
0.3597
0.3597
0.3587
0.3587
0.3587
0.3587
0.3587
0.3587
0.3587
0.3587
0.3587
0.3587
0.3587
0.3587
0.3587
0.3587
0.3587
0.3587
0.3587
0.3587
0.3597
0.3597
0.3597
0.3597
0.3597
0.3597
0.3607
0.3607
0.3607
0.3607
0.3607
0.3607
0.3617
0.3656
0.3695
0.3744
0.3783
0.3822
0.3861
0.391
0.3988
0.4076
0.4164
0.4194
0.4194
0.4194
0.4194
0.4115
0.4037
0.3949
0.3871
0.3793
0.3705
0.3627
0.3587
0.3587
0.3587
0.3587
0.3587
0.3587
0.3587
0.3607
0.3695
0.3773
0.3851
0.437
0.5269
0.6168
0.7077
0.7977
0.8876
0.9775
1
0.7048
0.4096
0.1144
0
0.0655
0.131
0.1965
0.2346
0.2678
0.3011
0.3304
0.3382
0.346
0.3548
0.3587
0.3587
0.3587
0.3587
0.3587
0.3587
0.3587
0.3597
0.3636
0.3675
0.3715
0.3763
0.3793
0.3842
0.3881
0.4018
0.4184
0.434
0.4506
0.4673
0.4839
0.5005
0.5093
0.5093
0.5093
0.5093
0.5034
0.4956
0.4878
0.478
0.4536
0.4282
0.4037
0.3861
0.3783
0.3695
0.3617
0.3607
0.3597
0.3597
0.3587
0.3587
0.3587
0.3587
0.3587
0.3587
0.3587
0.3587
0.3587
0.3587
0.3587
0.3587
0.3587
0.3587
0.3587
0.3587
0.3587
0.3587
0.3597
0.3597
0.3597
0.3597
0.3597
0.3597
0.3607
0.3607
0.3607
0.3607
0.3607
0.3607
0.3617
0.3656
0.3695
0.3744
0.3783
0.3822
0.3861
0.391
0.3988
0.4076
0.4164
0.4194
0.4194
0.4194
0.4194
0.4115
0.4037
0.3949
0.3871
0.3793
0.3705
0.3627
0.3587
0.3587
0.3587
0.3587
0.3587
0.3587
0.3587
0.3607
0.3695
0.3773
0.3851
0.437
0.5269
0.6168
0.7077
0.7977
0.8876
0.9775
1
0.7048
0.4096
0.1144
0
0.0655
0.131
0.1965
0.2346
0.2678
0.3011
0.3304
0.3382
0.346
0.3548
0.3587
0.3587
0.3587
0.3587
0.3587
0.3587
0.3587
0.3597
0.3636
0.3675
0.3715
0.3763
0.3793
0.3842
0.3881
0.4018
0.4184
0.434
0.4506
0.4673
0.4839
0.5005
0.5093
0.5093
0.5093
0.5093
0.5034
0.4956
0.4878
0.478
0.4536
0.4282
0.4037
0.3861
0.3783
0.3695
0.3617
0.3607
0.3597
0.3597
0.3587
0.3587
0.3587
0.3587
0.3587
0.3587
0.3587
0.3587
0.3587
0.3587
0.3587
0.3587
0.3587
0.3587
0.3587
0.3587
0.3587
0.3587
0.3597
0.3597
0.3597
0.3597
0.3597
0.3597
0.3607
0.3607
0.3607
0.3607
0.3607
0.3607
0.3617
0.3656
0.3695
0.3744
0.3783
0.3822
0.3861
0.391
0.3988
0.4076
0.4164
0.4194
0.4194
0.4194
0.4194
0.4115
0.4037
0.3949
0.3871
0.3793
0.3705
0.3627
0.3587
0.3587
0.3587
0.3587
0.3587
0.3587
0.3587
0.3607
0.3695
0.3773
0.3851
0.437
0.5269
0.6168
0.7077
0.7977
0.8876
0.9775
1
0.7048
0.4096
0.1144
0
0.0655
0.131
0.1965
0.2346
0.2678
0.3011
0.3304
0.3382
0.346
0.3548
0.3587
0.3587
0.3587
0.3587
0.3587
0.3587
0.3587
0.3597
0.3636
0.3675
0.3715
0.3763
0.3793
0.3842
0.3881
0.4018
0.4184
0.434
0.4506
0.4673
0.4839
0.5005
0.5093
0.5093
0.5093
0.5093
0.5034
0.4956
0.4878
0.478
0.4536
0.4282
0.4037
0.3861
0.3783
0.3695
0.3617
0.3607
0.3597
0.3597
0.3587
0.3587
0.3587
0.3587
0.3587
0.3587
0.3587
0.3587
0.3587
0.3587
0.3587
0.3587
0.3587
0.3587
0.3587
0.3587
0.3587
0.3587
0.3597
0.3597
0.3597
0.3597
0.3597
0.3597
0.3607
0.3607
0.3607
0.3607
0.3607
0.3607
0.3617
0.3656
0.3695
0.3744
0.3783
0.3822
0.3861
0.391
0.3988
0.4076
0.4164
0.4194
0.4194
0.4194
0.4194
0.4115
0.4037
0.3949
0.3871
0.3793
0.3705
0.3627
0.3587
0.3587
0.3587
0.3587
0.3587
0.3587
0.3587
0.3607
0.3695
0.3773
0.3851
0.437
0.5269
0.6168
0.7077
0.7977
0.8876
0.9775
1
0.7048
0.4096
0.1144
0
0.0655
0.131
0.1965
0.2346
0.2678
0.3011
0.3304
0.3382
0.346
0.3548
0.3587
0.3587
0.3587
0.3587
0.3587
0.3587
0.3587
0.3597
0.3636
0.3675
0.3715
0.3763
0.3793
0.3842
0.3881
0.4018
0.4184
0.434
0.4506
0.4673
0.4839
0.5005
0.5093
0.5093
0.5093
0.5093
0.5034
0.4956
0.4878
0.478
0.4536
0.4282
0.4037
0.3861
0.3783
0.3695
0.3617
0.3607
0.3597
0.3597
0.3587
0.3587
0.3587
0.3587
0.3587
0.3587
0.3587
0.3587
0.3587
0.3587
0.3587
0.3587
0.3587
0.3587
0.3587
0.3587
0.3587
0.3587
0.3597
0.3597
0.3597
0.3597
0.3597
0.3597
0.3607
0.3607
0.3607
0.3607
0.3607
0.3607
0.3617
0.3656
0.3695
0.3744
0.3783
0.3822
0.3861
0.391
0.3988
0.4076
0.4164
0.4194
0.4194
0.4194
0.4194
0.4115
0.4037
0.3949
0.3871
0.3793
0.3705
0.3627
0.3587
0.3587
0.3587
0.3587
0.3587
0.3587
0.3587
0.3607
0.3695
0.3773
0.3851
0.437
0.5269
0.6168
0.7077
0.7977
0.8876
0.9775
1
0.7048
0.4096
0.1144
0
0.0655
0.131
0.1965
0.2346
0.2678
0.3011
0.3304
0.3382
0.346
0.3548
0.3587
0.3587
0.3587
0.3587
0.3587
0.3587
0.3587
0.3597
0.3636
0.3675
0.3715
0.3763
0.3793
0.3842
0.3881
0.4018
0.4184
0.434
0.4506
0.4673
0.4839
0.5005
0.5093
0.5093
0.5093
0.5093
0.5034
0.4956
0.4878
0.478
0.4536
0.4282
0.4037
0.3861
0.3783
0.3695
0.3617
0.3607
0.3597
0.3597
0.3587
0.3587
0.3587
0.3587
0.3587
0.3587
0.3587
0.3587
0.3587
0.3587
0.3587
0.3587
0.3587
0.3587
0.3587
0.3587
0.3587
0.3587
0.3597
0.3597
0.3597
0.3597
0.3597
0.3597
0.3607
0.3607
0.3607
0.3607
0.3607
0.3607
0.3617
0.3656
0.3695
0.3744
0.3783
0.3822
0.3861
0.391
0.3988
0.4076
0.4164
0.4194
0.4194
0.4194
0.4194
0.4115
0.4037
0.3949
0.3871
0.3793
0.3705
0.3627
0.3587
0.3587
0.3587
0.3587
0.3587
0.3587
0.3587
0.3607
0.3695
0.3773
0.3851
0.437
0.5269
0.6168
0.7077
0.7977
0.8876
0.9775
1
0.7048
0.4096
0.1144
0
0.0655
0.131
0.1965
0.2346
0.2678
0.3011
0.3304
0.3382
0.346
0.3548
0.3587
0.3587
0.3587
0.3587
0.3587
0.3587
0.3587
0.3597
0.3636
0.3675
0.3715
0.3763
0.3793
0.3842
0.3881
0.4018
0.4184
0.434
0.4506
0.4673
0.4839
0.5005
0.5093
0.5093
0.5093
0.5093
0.5034
0.4956
0.4878
0.478
0.4536
0.4282
0.4037
0.3861
0.3783
0.3695
0.3617
0.3607
0.3597
0.3597
0.3587
0.3587
0.3587
0.3587
0.3587
0.3587
0.3587
0.3587
0.3587
0.3587
0.3587
0.3587
0.3587
0.3587
0.3587
0.3587
0.3587
0.3587
0.3597
0.3597
0.3597
0.3597
0.3597
0.3597
0.3607
0.3607
0.3607
0.3607
0.3607
0.3607
0.3617
0.3656
0.3695
0.3744
0.3783
0.3822
0.3861
0.391
0.3988
0.4076
0.4164
0.4194
0.4194
0.4194
0.4194
0.4115
0.4037
0.3949
0.3871
0.3793
0.3705
0.3627
0.3587
0.3587
0.3587
0.3587
0.3587
0.3587
0.3587
0.3607
0.3695
0.3773
0.3851
0.437
0.5269
0.6168
0.7077
0.7977
0.8876
0.9775
1
0.7048
0.4096
0.1144
0
0.0655
0.131
0.1965
0.2346
0.2678
0.3011
0.3304
0.3382
0.346
0.3548
0.3587
0.3587
0.3587
0.3587
0.3587
0.3587
0.3587
0.3597
0.3636
0.3675
0.3715
0.3763
0.3793
0.3842
0.3881
0.4018
0.4184
0.434
0.4506
0.4673
0.4839
0.5005
0.5093
0.5093
0.5093
0.5093
0.5034
0.4956
0.4878
0.478
0.4536
0.4282
0.4037
0.3861
0.3783
0.3695
0.3617
0.3607
0.3597
0.3597
0.3587
0.3587
0.3587
0.3587
0.3587
0.3587
0.3587
0.3587
0.3587
0.3587
0.3587
0.3587
0.3587
0.3587
0.3587
0.3587
0.3587
0.3587
0.3597
0.3597
0.3597
0.3597
0.3597
0.3597
0.3607
0.3607
0.3607
0.3607
0.3607
0.3607
0.3617
0.3656
0.3695
0.3744
0.3783
0.3822
0.3861
0.391
0.3988
0.4076
0.4164
0.4194
0.4194
0.4194
0.4194
0.4115
0.4037
0.3949
0.3871
0.3793
0.3705
0.3627
0.3587
0.3587
0.3587
0.3587
0.3587
0.3587
0.3587
0.3607
0.3695
0.3773
0.3851
0.437
0.5269
0.6168
0.7077
0.7977
0.8876
0.9775
1
0.7048
0.4096
0.1144
0
0.0655
0.131
0.1965
0.2346
0.2678
0.3011
0.3304
0.3382
0.346
0.3548
0.3587
0.3587
0.3587
0.3587
0.3587
0.3587
0.3587
0.3597
0.3636
0.3675
0.3715
0.3763
0.3793
0.3842
0.3881
0.4018
0.4184
0.434
0.4506
0.4673
0.4839
0.5005
0.5093
0.5093
0.5093
0.5093
0.5034
0.4956
0.4878
0.478
0.4536
0.4282
0.4037
0.3861
0.3783
0.3695
0.3617
0.3607
0.3597
0.3597
0.3587
0.3587
0.3587
0.3587
0.3587
0.3587
0.3587
0.3587
0.3587
0.3587
0.3587
0.3587
0.3587
0.3587
0.3587
0.3587
0.3587
0.3587
0.3597
0.3597
0.3597
0.3597
0.3597
0.3597
0.3607
0.3607
0.3607
0.3607
0.3607
0.3607
0.3617
0.3656
0.3695
0.3744
0.3783
0.3822
0.3861
0.391
0.3988
0.4076
0.4164
0.4194
0.4194
0.4194
0.4194
0.4115
0.4037
0.3949
0.3871
0.3793
0.3705
0.3627
0.3587
0.3587
0.3587
0.3587
0.3587
0.3587
0.3587
0.3607
0.3695
0.3773
0.3851
0.437
0.5269
0.6168
0.7077
0.7977
0.8876
0.9775
1
0.7048
0.4096
0.1144
0
0.0655
0.131
0.1965
0.2346
0.2678
0.3011
0.3304
0.3382
0.346
0.3548
0.3587
0.3587
0.3587
0.3587
0.3587
0.3587
0.3587
0.3597
0.3636
0.3675
0.3715
0.3763
0.3793
0.3842
0.3881
0.4018
0.4184
0.434
0.4506
0.4673
0.4839
0.5005
0.5093
0.5093
0.5093
0.5093
0.5034
0.4956
0.4878
0.478
0.4536
0.4282
0.4037
0.3861
0.3783
0.3695
0.3617
0.3607
0.3597
0.3597
0.3587
0.3587
0.3587
0.3587
0.3587
0.3587
0.3587
0.3587
0.3587
0.3587
0.3587
0.3587
0.3587
0.3587
0.3587
0.3587
0.3587
0.3587
0.3597
0.3597
0.3597
0.3597
0.3597
0.3597
0.3607
0.3607
0.3607
0.3607
0.3607
0.3607
0.3617
0.3656
0.3695
0.3744
0.3783
0.3822
0.3861
0.391
0.3988
0.4076
0.4164
0.4194
0.4194
0.4194
0.4194
0.4115
0.4037
0.3949
0.3871
0.3793
0.3705
0.3627
0.3587
0.3587
0.3587
0.3587
0.3587
0.3587
0.3587
0.3607
0.3695
0.3773
0.3851
0.437
0.5269
0.6168
0.7077
0.7977
0.8876
0.9775
1
0.7048
0.4096
0.1144
0
0.0655
0.131
0.1965
0.2346
0.2678
0.3011
0.3304
0.3382
0.346
0.3548
0.3587
0.3587
0.3587
0.3587
0.3587
0.3587
0.3587
0.3597
0.3636
0.3675
0.3715
0.3763
0.3793
0.3842
0.3881
0.4018
0.4184
0.434
0.4506
0.4673
0.4839
0.5005
0.5093
0.5093
0.5093
0.5093
0.5034
0.4956
0.4878
0.478
0.4536
0.4282
0.4037
0.3861
0.3783
0.3695
0.3617
0.3607
0.3597
0.3597
0.3587
0.3587
0.3587
0.3587
0.3587
0.3587
0.3587
0.3587
0.3587
0.3587
0.3587
0.3587
0.3587
0.3587
0.3587
0.3587
0.3587
0.3587
0.3597
0.3597
0.3597
0.3597
0.3597
0.3597
0.3607
0.3607
0.3607
0.3607
0.3607
0.3607
0.3617
0.3656
0.3695
0.3744
0.3783
0.3822
0.3861
0.391
0.3988
0.4076
0.4164
0.4194
0.4194
0.4194
0.4194
0.4115
0.4037
0.3949
0.3871
0.3793
0.3705
0.3627
0.3587
0.3587
0.3587
0.3587
0.3587
0.3587
0.3587
0.3607
0.3695
0.3773
0.3851
0.437
0.5269
0.6168
0.7077
0.7977
0.8876
0.9775
1
0.7048
0.4096
0.1144
0
0.0655
0.131
0.1965
0.2346
0.2678
0.3011
0.3304
0.3382
0.346
0.3548
0.3587
0.3587
0.3587
0.3587
0.3587
0.3587
0.3587
0.3597
0.3636
0.3675
0.3715
0.3763
0.3793
0.3842
0.3881
0.4018
0.4184
0.434
0.4506
0.4673
0.4839
0.5005
0.5093
0.5093
0.5093
0.5093
0.5034
0.4956
0.4878
0.478
0.4536
0.4282
0.4037
0.3861
0.3783
0.3695
0.3617
0.3607
0.3597
0.3597
0.3587
0.3587
0.3587
0.3587
0.3587
0.3587
0.3587
0.3587
0.3587
0.3587
0.3587
0.3587
0.3587
0.3587
0.3587
0.3587
0.3587
0.3587
0.3597
0.3597
0.3597
0.3597
0.3597
0.3597
0.3607
0.3607
0.3607
0.3607
0.3607
0.3607
0.3617
0.3656
0.3695
0.3744
0.3783
0.3822
0.3861
0.391
0.3988
0.4076
0.4164
0.4194
0.4194
0.4194
0.4194
0.4115
0.4037
0.3949
0.3871
0.3793
0.3705
0.3627
0.3587
0.3587
0.3587
0.3587
0.3587
0.3587
0.3587
0.3607
0.3695
0.3773
0.3851
0.437
0.5269
0.6168
0.7077
0.7977
0.8876
0.9775
1
0.7048
0.4096
0.1144
0
0.0655
0.131
0.1965
0.2346
0.2678
0.3011
0.3304
0.3382
0.346
0.3548
0.3587
0.3587
0.3587
0.3587
0.3587
0.3587
0.3587
0.3597
0.3636
0.3675
0.3715
0.3763
0.3793
0.3842
0.3881
0.4018
0.4184
0.434
0.4506
0.4673
0.4839
0.5005
0.5093
0.5093
0.5093
0.5093
0.5034
0.4956
0.4878
0.478
0.4536
0.4282
0.4037
0.3861
0.3783
0.3695
0.3617
0.3607
0.3597
0.3597
0.3587
0.3587
0.3587
0.3587
0.3587
0.3587
0.3587
0.3587
0.3587
0.3587
0.3587
0.3587
0.3587
0.3587
0.3587
0.3587
0.3587
0.3587
0.3597
0.3597
0.3597
0.3597
0.3597
0.3597
0.3607
0.3607
0.3607
0.3607
0.3607
0.3607
0.3617
0.3656
0.3695
0.3744
0.3783
0.3822
0.3861
0.391
0.3988
0.4076
0.4164
0.4194
0.4194
0.4194
0.4194
0.4115
0.4037
0.3949
0.3871
0.3793
0.3705
0.3627
0.3587
0.3587
0.3587
0.3587
0.3587
0.3587
0.3587
0.3607
0.3695
0.3773
0.3851
0.437
0.5269
0.6168
0.7077
0.7977
0.8876
0.9775
1
0.7048
0.4096
0.1144
0
0.0655
0.131
0.1965
0.2346
0.2678
0.3011
0.3304
0.3382
0.346
0.3548
0.3587
0.3587
0.3587
0.3587
0.3587
0.3587
0.3587
0.3597
0.3636
0.3675
0.3715
0.3763
0.3793
0.3842
0.3881
0.4018
0.4184
0.434
0.4506
0.4673
0.4839
0.5005
0.5093
0.5093
0.5093
0.5093
0.5034
0.4956
0.4878
0.478
0.4536
0.4282
0.4037
0.3861
0.3783
0.3695
0.3617
0.3607
0.3597
0.3597
0.3587
0.3587
0.3587
0.3587
0.3587
0.3587
0.3587
0.3587
0.3587
0.3587
0.3587
0.3587
0.3587
0.3587
0.3587
0.3587
0.3587
0.3587
0.3597
0.3597
0.3597
0.3597
0.3597
0.3597
0.3607
0.3607
0.3607
0.3607
0.3607
0.3607
0.3617
0.3656
0.3695
0.3744
0.3783
0.3822
0.3861
0.391
0.3988
0.4076
0.4164
0.4194
0.4194
0.4194
0.4194
0.4115
0.4037
0.3949
0.3871
0.3793
0.3705
0.3627
0.3587
0.3587
0.3587
0.3587
0.3587
0.3587
0.3587
0.3607
0.3695
0.3773
0.3851
0.437
0.5269
0.6168
0.7077
0.7977
0.8876
0.9775
1
0.7048
0.4096
0.1144
0
0.0655
0.131
0.1965
0.2346
0.2678
0.3011
0.3304
0.3382
0.346
0.3548
0.3587
0.3587
0.3587
0.3587
0.3587
0.3587
0.3587
0.3597
0.3636
0.3675
0.3715
0.3763
0.3793
0.3842
0.3881
0.4018
0.4184
0.434
0.4506
0.4673
0.4839
0.5005
0.5093
0.5093
0.5093
0.5093
0.5034
0.4956
0.4878
0.478
0.4536
0.4282
0.4037
0.3861
0.3783
0.3695
0.3617
0.3607
0.3597
0.3597
0.3587
0.3587
0.3587
0.3587
0.3587
0.3587
0.3587
0.3587
0.3587
0.3587
0.3587
0.3587
0.3587
0.3587
0.3587
0.3587
0.3587
0.3587
0.3597
0.3597
0.3597
0.3597
0.3597
0.3597
0.3607
0.3607
0.3607
0.3607
0.3607
0.3607
0.3617
0.3656
0.3695
0.3744
0.3783
0.3822
0.3861
0.391
0.3988
0.4076
0.4164
0.4194
0.4194
0.4194
0.4194
0.4115
0.4037
0.3949
0.3871
0.3793
0.3705
0.3627
0.3587
0.3587
0.3587
0.3587
0.3587
0.3587
0.3587
0.3607
0.3695
0.3773
0.3851
0.437
0.5269
0.6168
0.7077
0.7977
0.8876
0.9775
1
0.7048
0.4096
0.1144
0
0.0655
0.131
0.1965
0.2346
0.2678
0.3011
0.3304
0.3382
0.346
0.3548
0.3587
0.3587
0.3587
0.3587
0.3587
0.3587
0.3587
0.3597
0.3636
0.3675
0.3715
0.3763
0.3793
0.3842
0.3881
0.4018
0.4184
0.434
0.4506
0.4673
0.4839
0.5005
0.5093
0.5093
0.5093
0.5093
0.5034
0.4956
0.4878
0.478
0.4536
0.4282
0.4037
0.3861
0.3783
0.3695
0.3617
0.3607
0.3597
0.3597
0.3587
0.3587
0.3587
0.3587
0.3587
0.3587
0.3587
0.3587
0.3587
0.3587
0.3587
0.3587
0.3587
0.3587
0.3587
0.3587
0.3587
0.3587
0.3597
0.3597
0.3597
0.3597
0.3597
0.3597
0.3607
0.3607
0.3607
0.3607
0.3607
0.3607
0.3617
0.3656
0.3695
0.3744
0.3783
0.3822
0.3861
0.391
0.3988
0.4076
0.4164
0.4194
0.4194
0.4194
0.4194
0.4115
0.4037
0.3949
0.3871
0.3793
0.3705
0.3627
0.3587
0.3587
0.3587
0.3587
0.3587
0.3587
0.3587
0.3607
0.3695
0.3773
0.3851
0.437
0.5269
0.6168
0.7077
0.7977
0.8876
0.9775
1
0.7048
0.4096
0.1144
0
0.0655
0.131
0.1965
0.2346
0.2678
0.3011
0.3304
0.3382
0.346
0.3548
0.3587
0.3587
0.3587
0.3587
0.3587
0.3587
0.3587
0.3597
0.3636
0.3675
0.3715
0.3763
0.3793
0.3842
0.3881
0.4018
0.4184
0.434
0.4506
0.4673
0.4839
0.5005
0.5093
0.5093
0.5093
0.5093
0.5034
0.4956
0.4878
0.478
0.4536
0.4282
0.4037
0.3861
0.3783
0.3695
0.3617
0.3607
0.3597
0.3597
0.3587
0.3587
0.3587
0.3587
0.3587
0.3587
0.3587
0.3587
0.3587
0.3587
0.3587
0.3587
0.3587
0.3587
0.3587
0.3587
0.3587
0.3587
0.3597
0.3597
0.3597
0.3597
0.3597
0.3597
0.3607
0.3607
0.3607
0.3607
0.3607
0.3607
0.3617
0.3656
0.3695
0.3744
0.3783
0.3822
0.3861
0.391
0.3988
0.4076
0.4164
0.4194
0.4194
0.4194
0.4194
0.4115
0.4037
0.3949
0.3871
0.3793
0.3705
0.3627
0.3587
0.3587
0.3587
0.3587
0.3587
0.3587
0.3587
0.3607
0.3695
0.3773
0.3851
0.437
0.5269
0.6168
0.7077
0.7977
0.8876
0.9775
1
0.7048
0.4096
0.1144
0
0.0655
0.131
0.1965
0.2346
0.2678
0.3011
0.3304
0.3382
0.346
0.3548
0.3587
0.3587
0.3587
0.3587
0.3587
0.3587
0.3587
0.3597
0.3636
0.3675
0.3715
0.3763
0.3793
0.3842
0.3881
0.4018
0.4184
0.434
0.4506
0.4673
0.4839
0.5005
0.5093
0.5093
0.5093
0.5093
0.5034
0.4956
0.4878
0.478
0.4536
0.4282
0.4037
0.3861
0.3783
0.3695
0.3617
0.3607
0.3597
0.3597
0.3587
0.3587
0.3587
0.3587
0.3587
0.3587
0.3587
0.3587
0.3587
0.3587
0.3587
0.3587
0.3587
0.3587
0.3587
0.3587
0.3587
0.3587
0.3597
0.3597
0.3597
0.3597
0.3597
0.3597
0.3607
0.3607
0.3607
0.3607
0.3607
0.3607
0.3617
0.3656
0.3695
0.3744
0.3783
0.3822
0.3861
0.391
0.3988
0.4076
0.4164
0.4194
0.4194
0.4194
0.4194
0.4115
0.4037
0.3949
0.3871
0.3793
0.3705
0.3627
0.3587
0.3587
0.3587
0.3587
0.3587
0.3587
0.3587
0.3607
0.3695
0.3773
0.3851
0.437
0.5269
0.6168
0.7077
0.7977
0.8876
0.9775
1
0.7048
0.4096
0.1144
0
0.0655
0.131
0.1965
0.2346
0.2678
0.3011
0.3304
0.3382
0.346
0.3548
0.3587
0.3587
0.3587
0.3587
0.3587
0.3587
0.3587
0.3597
0.3636
0.3675
0.3715
0.3763
0.3793
0.3842
0.3881
0.4018
0.4184
0.434
0.4506
0.4673
0.4839
0.5005
0.5093
0.5093
0.5093
0.5093
0.5034
0.4956
0.4878
0.478
0.4536
0.4282
0.4037
0.3861
0.3783
0.3695
0.3617
0.3607
0.3597
0.3597
0.3587
0.3587
0.3587
0.3587
0.3587
0.3587
0.3587
0.3587
0.3587
0.3587
0.3587
0.3587
0.3587
0.3587
0.3587
0.3587
0.3587
0.3587
0.3597
0.3597
0.3597
0.3597
0.3597
0.3597
0.3607
0.3607
0.3607
0.3607
0.3607
0.3607
0.3617
0.3656
0.3695
0.3744
0.3783
0.3822
0.3861
0.391
0.3988
0.4076
0.4164
0.4194
0.4194
0.4194
0.4194
0.4115
0.4037
0.3949
0.3871
0.3793
0.3705
0.3627
0.3587
0.3587
0.3587
0.3587
0.3587
0.3587
0.3587
0.3607
0.3695
0.3773
0.3851
0.437
0.5269
0.6168
0.7077
0.7977
0.8876
0.9775
1
0.7048
0.4096
0.1144
0
0.0655
0.131
0.1965
0.2346
0.2678
0.3011
0.3304
0.3382
0.346
0.3548
0.3587
0.3587
0.3587
0.3587
0.3587
0.3587
0.3587
0.3597
0.3636
0.3675
0.3715
0.3763
0.3793
0.3842
0.3881
0.4018
0.4184
0.434
0.4506
0.4673
0.4839
0.5005
0.5093
0.5093
0.5093
0.5093
0.5034
0.4956
0.4878
0.478
0.4536
0.4282
0.4037
0.3861
0.3783
0.3695
0.3617
0.3607
0.3597
0.3597
0.3587
0.3587
0.3587
0.3587
0.3587
0.3587
0.3587
0.3587
0.3587
0.3587
0.3587
0.3587
0.3587
0.3587
0.3587
0.3587
0.3587
0.3587
0.3597
0.3597
0.3597
0.3597
0.3597
0.3597
0.3607
0.3607
0.3607
0.3607
0.3607
0.3607
0.3617
0.3656
0.3695
0.3744
0.3783
0.3822
0.3861
0.391
0.3988
0.4076
0.4164
0.4194
0.4194
0.4194
0.4194
0.4115
0.4037
0.3949
0.3871
0.3793
0.3705
0.3627
0.3587
0.3587
0.3587
0.3587
0.3587
0.3587
0.3587
0.3607
0.3695
0.3773
0.3851
0.437
0.5269
0.6168
0.7077
0.7977
0.8876
0.9775
1
0.7048
0.4096
0.1144
0
0.0655
0.131
0.1965
0.2346
0.2678
0.3011
0.3304
0.3382
0.346
0.3548
0.3587
0.3587
0.3587
0.3587
0.3587
0.3587
0.3587
0.3597
0.3636
0.3675
0.3715
0.3763
0.3793
0.3842
0.3881
0.4018
0.4184
0.434
0.4506
0.4673
0.4839
0.5005
0.5093
0.5093
0.5093
0.5093
0.5034
0.4956
0.4878
0.478
0.4536
0.4282
0.4037
0.3861
0.3783
0.3695
0.3617
0.3607
0.3597
0.3597
0.3587
0.3587
0.3587
0.3587
0.3587
0.3587
0.3587
0.3587
0.3587
0.3587
0.3587
0.3587
0.3587
0.3587
0.3587
0.3587
0.3587
0.3587
0.3597
0.3597
0.3597
0.3597
0.3597
0.3597
0.3607
0.3607
0.3607
0.3607
0.3607
0.3607
0.3617
0.3656
0.3695
0.3744
0.3783
0.3822
0.3861
0.391
0.3988
0.4076
0.4164
0.4194
0.4194
0.4194
0.4194
0.4115
0.4037
0.3949
0.3871
0.3793
0.3705
0.3627
0.3587
0.3587
0.3587
0.3587
0.3587
0.3587
0.3587
0.3607
0.3695
0.3773
0.3851
0.437
0.5269
0.6168
0.7077
0.7977
0.8876
0.9775
1
0.7048
0.4096
0.1144
0
0.0655
0.131
0.1965
0.2346
0.2678
0.3011
0.3304
0.3382
0.346
0.3548
0.3587
0.3587
0.3587
0.3587
0.3587
0.3587
0.3587
0.3597
0.3636
0.3675
0.3715
0.3763
0.3793
0.3842
0.3881
0.4018
0.4184
0.434
0.4506
0.4673
0.4839
0.5005
0.5093
0.5093
0.5093
0.5093
0.5034
0.4956
0.4878
0.478
0.4536
0.4282
0.4037
0.3861
0.3783
0.3695
0.3617
0.3607
0.3597
0.3597
0.3587
0.3587
0.3587
0.3587
0.3587
0.3587
0.3587
0.3587
0.3587
0.3587
0.3587
0.3587
0.3587
0.3587
0.3587
0.3587
0.3587
0.3587
0.3597
0.3597
0.3597
0.3597
0.3597
0.3597
0.3607
0.3607
0.3607
0.3607
0.3607
0.3607
0.3617
0.3656
0.3695
0.3744
0.3783
0.3822
0.3861
0.391
0.3988
0.4076
0.4164
0.4194
0.4194
0.4194
0.4194
0.4115
0.4037
0.3949
0.3871
0.3793
0.3705
0.3627
0.3587
0.3587
0.3587
0.3587
0.3587
0.3587
0.3587
0.3607
0.3695
0.3773
0.3851
0.437
0.5269
0.6168
0.7077
0.7977
0.8876
0.9775
1
0.7048
0.4096
0.1144
0
0.0655
0.131
0.1965
0.2346
0.2678
0.3011
0.3304
0.3382
0.346
0.3548
0.3587
0.3587
0.3587
0.3587
0.3587
0.3587
0.3587
0.3597
0.3636
0.3675
0.3715
0.3763
0.3793
0.3842
0.3881
0.4018
0.4184
0.434
0.4506
0.4673
0.4839
0.5005
0.5093
0.5093
0.5093
0.5093
0.5034
0.4956
0.4878
0.478
0.4536
0.4282
0.4037
0.3861
0.3783
0.3695
0.3617
0.3607
0.3597
0.3597
0.3587
0.3587
0.3587
0.3587
0.3587
0.3587
0.3587
0.3587
0.3587
0.3587
0.3587
0.3587
0.3587
0.3587
0.3587
0.3587
0.3587
0.3587
0.3597
0.3597
0.3597
0.3597
0.3597
0.3597
0.3607
0.3607
0.3607
0.3607
0.3607
0.3607
0.3617
0.3656
0.3695
0.3744
0.3783
0.3822
0.3861
0.391
0.3988
0.4076
0.4164
0.4194
0.4194
0.4194
0.4194
0.4115
0.4037
0.3949
0.3871
0.3793
0.3705
0.3627
0.3587
0.3587
0.3587
0.3587
0.3587
0.3587
0.3587
0.3607
0.3695
0.3773
0.3851
0.437
0.5269
0.6168
0.7077
0.7977
0.8876
0.9775
1
0.7048
0.4096
0.1144
0
0.0655
0.131
0.1965
0.2346
0.2678
0.3011
0.3304
0.3382
0.346
0.3548
0.3587
0.3587
0.3587
0.3587
0.3587
0.3587
0.3587
0.3597
0.3636
0.3675
0.3715
0.3763
0.3793
0.3842
0.3881
0.4018
0.4184
0.434
0.4506
0.4673
0.4839
0.5005
0.5093
0.5093
0.5093
0.5093
0.5034
0.4956
0.4878
0.478
0.4536
0.4282
0.4037
0.3861
0.3783
0.3695
0.3617
0.3607
0.3597
0.3597
0.3587
0.3587
0.3587
0.3587
0.3587
0.3587
0.3587
0.3587
0.3587
0.3587
0.3587
0.3587
0.3587
0.3587
0.3587
0.3587
0.3587
0.3587
0.3597
0.3597
0.3597
0.3597
0.3597
0.3597
0.3607
0.3607
0.3607
0.3607
0.3607
0.3607
0.3617
0.3656
0.3695
0.3744
0.3783
0.3822
0.3861
0.391
0.3988
0.4076
0.4164
0.4194
0.4194
0.4194
0.4194
0.4115
0.4037
0.3949
0.3871
0.3793
0.3705
0.3627
0.3587
0.3587
0.3587
0.3587
0.3587
0.3587
0.3587
0.3607
0.3695
0.3773
0.3851
0.437
0.5269
0.6168
0.7077
0.7977
0.8876
0.9775
1
0.7048
0.4096
0.1144
0
0.0655
0.131
0.1965
0.2346
0.2678
0.3011
0.3304
0.3382
0.346
0.3548
0.3587
0.3587
0.3587
0.3587
0.3587
0.3587
0.3587
0.3597
0.3636
0.3675
0.3715
0.3763
0.3793
0.3842
0.3881
0.4018
0.4184
0.434
0.4506
0.4673
0.4839
0.5005
0.5093
0.5093
0.5093
0.5093
0.5034
0.4956
0.4878
0.478
0.4536
0.4282
0.4037
0.3861
0.3783
0.3695
0.3617
0.3607
0.3597
0.3597
0.3587
0.3587
0.3587
0.3587
0.3587
0.3587
0.3587
0.3587
0.3587
0.3587
0.3587
0.3587
0.3587
0.3587
0.3587
0.3587
0.3587
0.3587
0.3597
0.3597
0.3597
0.3597
0.3597
0.3597
0.3607
0.3607
0.3607
0.3607
0.3607
0.3607
0.3617
0.3656
0.3695
0.3744
0.3783
0.3822
0.3861
0.391
0.3988
0.4076
0.4164
0.4194
0.4194
0.4194
0.4194
0.4115
0.4037
0.3949
0.3871
0.3793
0.3705
0.3627
0.3587
0.3587
0.3587
0.3587
0.3587
0.3587
0.3587
0.3607
0.3695
0.3773
0.3851
0.437
0.5269
0.6168
0.7077
0.7977
0.8876
0.9775
1
0.7048
0.4096
0.1144
0
0.0655
0.131
0.1965
0.2346
0.2678
0.3011
0.3304
0.3382
0.346
0.3548
0.3587
0.3587
0.3587
0.3587
0.3587
0.3587
0.3587
0.3597
0.3636
0.3675
0.3715
0.3763
0.3793
0.3842
0.3881
0.4018
0.4184
0.434
0.4506
0.4673
0.4839
0.5005
0.5093
0.5093
0.5093
0.5093
0.5034
0.4956
0.4878
0.478
0.4536
0.4282
0.4037
0.3861
0.3783
0.3695
0.3617
0.3607
0.3597
0.3597
0.3587
0.3587
0.3587
0.3587
0.3587
0.3587
0.3587
0.3587
0.3587
0.3587
0.3587
0.3587
0.3587
0.3587
0.3587
0.3587
0.3587
0.3587
0.3597
0.3597
0.3597
0.3597
0.3597
0.3597
0.3607
0.3607
0.3607
0.3607
0.3607
0.3607
0.3617
0.3656
0.3695
0.3744
0.3783
0.3822
0.3861
0.391
0.3988
0.4076
0.4164
0.4194
0.4194
0.4194
0.4194
0.4115
0.4037
0.3949
0.3871
0.3793
0.3705
0.3627
0.3587
0.3587
0.3587
0.3587
0.3587
0.3587
0.3587
0.3607
0.3695
0.3773
0.3851
0.437
0.5269
0.6168
0.7077
0.7977
0.8876
0.9775
1
0.7048
0.4096
0.1144
0
0.0655
0.131
0.1965
0.2346
0.2678
0.3011
0.3304
0.3382
0.346
0.3548
0.3587
0.3587
0.3587
0.3587
0.3587
0.3587
0.3587
0.3597
0.3636
0.3675
0.3715
0.3763
0.3793
0.3842
0.3881
0.4018
0.4184
0.434
0.4506
0.4673
0.4839
0.5005
0.5093
0.5093
0.5093
0.5093
0.5034
0.4956
0.4878
0.478
0.4536
0.4282
0.4037
0.3861
0.3783
0.3695
0.3617
0.3607
0.3597
0.3597
0.3587
0.3587
0.3587
0.3587
0.3587
0.3587
0.3587
0.3587
0.3587
0.3587
0.3587
0.3587
0.3587
0.3587
0.3587
0.3587
0.3587
0.3587
0.3597
0.3597
0.3597
0.3597
0.3597
0.3597
0.3607
0.3607
0.3607
0.3607
0.3607
0.3607
0.3617
0.3656
0.3695
0.3744
0.3783
0.3822
0.3861
0.391
0.3988
0.4076
0.4164
0.4194
0.4194
0.4194
0.4194
0.4115
0.4037
0.3949
0.3871
0.3793
0.3705
0.3627
0.3587
0.3587
0.3587
0.3587
0.3587
0.3587
0.3587
0.3607
0.3695
0.3773
0.3851
0.437
0.5269
0.6168
0.7077
0.7977
0.8876
0.9775
1
0.7048
0.4096
0.1144
0
0.0655
0.131
0.1965
0.2346
0.2678
0.3011
0.3304
0.3382
0.346
0.3548
0.3587
0.3587
0.3587
0.3587
0.3587
0.3587
0.3587
0.3597
0.3636
0.3675
0.3715
0.3763
0.3793
0.3842
0.3881
0.4018
0.4184
0.434
0.4506
0.4673
0.4839
0.5005
0.5093
0.5093
0.5093
0.5093
0.5034
0.4956
0.4878
0.478
0.4536
0.4282
0.4037
0.3861
0.3783
0.3695
0.3617
0.3607
0.3597
0.3597
0.3587
0.3587
0.3587
0.3587
0.3587
0.3587
0.3587
0.3587
0.3587
0.3587
0.3587
0.3587
0.3587
0.3587
0.3587
0.3587
0.3587
0.3587
0.3597
0.3597
0.3597
0.3597
0.3597
0.3597
0.3607
0.3607
0.3607
0.3607
0.3607
0.3607
0.3617
0.3656
0.3695
0.3744
0.3783
0.3822
0.3861
0.391
0.3988
0.4076
0.4164
0.4194
0.4194
0.4194
0.4194
0.4115
0.4037
0.3949
0.3871
0.3793
0.3705
0.3627
0.3587
0.3587
0.3587
0.3587
0.3587
0.3587
0.3587
0.3607
0.3695
0.3773
0.3851
0.437
0.5269
0.6168
0.7077
0.7977
0.8876
0.9775
1
0.7048
0.4096
0.1144
0
0.0655
0.131
0.1965
0.2346
0.2678
0.3011
0.3304
0.3382
0.346
0.3548
0.3587
0.3587
0.3587
0.3587
0.3587
0.3587
0.3587
0.3597
0.3636
0.3675
0.3715
0.3763
0.3793
0.3842
0.3881
0.4018
0.4184
0.434
0.4506
0.4673
0.4839
0.5005
0.5093
0.5093
0.5093
0.5093
0.5034
0.4956
0.4878
0.478
0.4536
0.4282
0.4037
0.3861
0.3783
0.3695
0.3617
0.3607
0.3597
0.3597
0.3587
0.3587
0.3587
0.3587
0.3587
0.3587
0.3587
0.3587
0.3587
0.3587
0.3587
0.3587
0.3587
0.3587
0.3587
0.3587
0.3587
0.3587
0.3597
0.3597
0.3597
0.3597
0.3597
0.3597
0.3607
0.3607
0.3607
0.3607
0.3607
0.3607
0.3617
0.3656
0.3695
0.3744
0.3783
0.3822
0.3861
0.391
0.3988
0.4076
0.4164
0.4194
0.4194
0.4194
0.4194
0.4115
0.4037
0.3949
0.3871
0.3793
0.3705
0.3627
0.3587
0.3587
0.3587
0.3587
0.3587
0.3587
0.3587
0.3607
0.3695
0.3773
0.3851
0.437
0.5269
0.6168
0.7077
0.7977
0.8876
0.9775
1
0.7048
0.4096
0.1144
0
0.0655
0.131
0.1965
0.2346
0.2678
0.3011
0.3304
0.3382
0.346
0.3548
0.3587
0.3587
0.3587
0.3587
0.3587
0.3587
0.3587
0.3597
0.3636
0.3675
0.3715
0.3763
0.3793
0.3842
0.3881
0.4018
0.4184
0.434
0.4506
0.4673
0.4839
0.5005
0.5093
0.5093
0.5093
0.5093
0.5034
0.4956
0.4878
0.478
0.4536
0.4282
0.4037
0.3861
0.3783
0.3695
0.3617
0.3607
0.3597
0.3597
0.3587
0.3587
0.3587
0.3587
0.3587
0.3587
0.3587
0.3587
0.3587
0.3587
0.3587
0.3587
0.3587
0.3587
0.3587
0.3587
0.3587
0.3587
0.3597
0.3597
0.3597
0.3597
0.3597
0.3597
0.3607
0.3607
0.3607
0.3607
0.3607
0.3607
0.3617
0.3656
0.3695
0.3744
0.3783
0.3822
0.3861
0.391
0.3988
0.4076
0.4164
0.4194
0.4194
0.4194
0.4194
0.4115
0.4037
0.3949
0.3871
0.3793
0.3705
0.3627
0.3587
0.3587
0.3587
0.3587
0.3587
0.3587
0.3587
0.3607
0.3695
0.3773
0.3851
0.437
0.5269
0.6168
0.7077
0.7977
0.8876
0.9775
1
0.7048
0.4096
0.1144
0
0.0655
0.131
0.1965
0.2346
0.2678
0.3011
0.3304
0.3382
0.346
0.3548
0.3587
0.3587
0.3587
0.3587
0.3587
0.3587
0.3587
0.3597
0.3636
0.3675
0.3715
0.3763
0.3793
0.3842
0.3881
0.4018
0.4184
0.434
0.4506
0.4673
0.4839
0.5005
0.5093
0.5093
0.5093
0.5093
0.5034
0.4956
0.4878
0.478
0.4536
0.4282
0.4037
0.3861
0.3783
0.3695
0.3617
0.3607
0.3597
0.3597
0.3587
0.3587
0.3587
0.3587
0.3587
0.3587
0.3587
0.3587
0.3587
0.3587
0.3587
0.3587
0.3587
0.3587
0.3587
0.3587
0.3587
0.3587
0.3597
0.3597
0.3597
0.3597
0.3597
0.3597
0.3607
0.3607
0.3607
0.3607
0.3607
0.3607
0.3617
0.3656
0.3695
0.3744
0.3783
0.3822
0.3861
0.391
0.3988
0.4076
0.4164
0.4194
0.4194
0.4194
0.4194
0.4115
0.4037
0.3949
0.3871
0.3793
0.3705
0.3627
0.3587
0.3587
0.3587
0.3587
0.3587
0.3587
0.3587
0.3607
0.3695
0.3773
0.3851
0.437
0.5269
0.6168
0.7077
0.7977
0.8876
0.9775
1
0.7048
0.4096
0.1144
0
0.0655
0.131
0.1965
0.2346
0.2678
0.3011
0.3304
0.3382
0.346
0.3548
0.3587
0.3587
0.3587
0.3587
0.3587
0.3587
0.3587
0.3597
0.3636
0.3675
0.3715
0.3763
0.3793
0.3842
0.3881
0.4018
0.4184
0.434
0.4506
0.4673
0.4839
0.5005
0.5093
0.5093
0.5093
0.5093
0.5034
0.4956
0.4878
0.478
0.4536
0.4282
0.4037
0.3861
0.3783
0.3695
0.3617
0.3607
0.3597
0.3597
0.3587
0.3587
0.3587
0.3587
0.3587
0.3587
0.3587
0.3587
0.3587
0.3587
0.3587
0.3587
0.3587
0.3587
0.3587
0.3587
0.3587
0.3587
0.3597
0.3597
0.3597
0.3597
0.3597
0.3597
0.3607
0.3607
0.3607
0.3607
0.3607
0.3607
0.3617
0.3656
0.3695
0.3744
0.3783
0.3822
0.3861
0.391
0.3988
0.4076
0.4164
0.4194
0.4194
0.4194
0.4194
0.4115
0.4037
0.3949
0.3871
0.3793
0.3705
0.3627
0.3587
0.3587
0.3587
0.3587
0.3587
0.3587
0.3587
0.3607
0.3695
0.3773
0.3851
0.437
0.5269
0.6168
0.7077
0.7977
0.8876
0.9775
1
0.7048
0.4096
0.1144
0
0.0655
0.131
0.1965
0.2346
0.2678
0.3011
0.3304
0.3382
0.346
0.3548
0.3587
0.3587
0.3587
0.3587
0.3587
0.3587
0.3587
0.3597
0.3636
0.3675
0.3715
0.3763
0.3793
0.3842
0.3881
0.4018
0.4184
0.434
0.4506
0.4673
0.4839
0.5005
0.5093
0.5093
0.5093
0.5093
0.5034
0.4956
0.4878
0.478
0.4536
0.4282
0.4037
0.3861
0.3783
0.3695
0.3617
0.3607
0.3597
0.3597
0.3587
0.3587
0.3587
0.3587
0.3587
0.3587
0.3587
0.3587
0.3587
0.3587
0.3587
0.3587
0.3587
0.3587
0.3587
0.3587
0.3587
0.3587
0.3597
0.3597
0.3597
0.3597
0.3597
0.3597
0.3607
0.3607
0.3607
0.3607
0.3607
0.3607
0.3617
0.3656
0.3695
0.3744
0.3783
0.3822
0.3861
0.391
0.3988
0.4076
0.4164
0.4194
0.4194
0.4194
0.4194
0.4115
0.4037
0.3949
0.3871
0.3793
0.3705
0.3627
0.3587
0.3587
0.3587
0.3587
0.3587
0.3587
0.3587
0.3607
0.3695
0.3773
0.3851
0.437
0.5269
0.6168
0.7077
0.7977
0.8876
0.9775
1
0.7048
0.4096
0.1144
0
0.0655
0.131
0.1965
0.2346
0.2678
0.3011
0.3304
0.3382
0.346
0.3548
0.3587
0.3587
0.3587
0.3587
0.3587
0.3587
0.3587
0.3597
0.3636
0.3675
0.3715
0.3763
0.3793
0.3842
0.3881
0.4018
0.4184
0.434
0.4506
0.4673
0.4839
0.5005
0.5093
0.5093
0.5093
0.5093
0.5034
0.4956
0.4878
0.478
0.4536
0.4282
0.4037
0.3861
0.3783
0.3695
0.3617
0.3607
0.3597
0.3597
0.3587
0.3587
0.3587
0.3587
0.3587
0.3587
0.3587
0.3587
0.3587
0.3587
0.3587
0.3587
0.3587
0.3587
0.3587
0.3587
0.3587
0.3587
0.3597
0.3597
0.3597
0.3597
0.3597
0.3597
0.3607
0.3607
0.3607
0.3607
0.3607
0.3607
0.3617
0.3656
0.3695
0.3744
0.3783
0.3822
0.3861
0.391
0.3988
0.4076
0.4164
0.4194
0.4194
0.4194
0.4194
0.4115
0.4037
0.3949
0.3871
0.3793
0.3705
0.3627
0.3587
0.3587
0.3587
0.3587
0.3587
0.3587
0.3587
0.3607
0.3695
0.3773
0.3851
0.437
0.5269
0.6168
0.7077
0.7977
0.8876
0.9775
1
0.7048
0.4096
0.1144
0
0.0655
0.131
0.1965
0.2346
0.2678
0.3011
0.3304
0.3382
0.346
0.3548
0.3587
0.3587
0.3587
0.3587
0.3587
0.3587
0.3587
0.3597
0.3636
0.3675
0.3715
0.3763
0.3793
0.3842
0.3881
0.4018
0.4184
0.434
0.4506
0.4673
0.4839
0.5005
0.5093
0.5093
0.5093
0.5093
0.5034
0.4956
0.4878
0.478
0.4536
0.4282
0.4037
0.3861
0.3783
0.3695
0.3617
0.3607
0.3597
0.3597
0.3587
0.3587
0.3587
0.3587
0.3587
0.3587
0.3587
0.3587
0.3587
0.3587
0.3587
0.3587
0.3587
0.3587
0.3587
0.3587
0.3587
0.3587
0.3597
0.3597
0.3597
0.3597
0.3597
0.3597
0.3607
0.3607
0.3607
0.3607
0.3607
0.3607
0.3617
0.3656
0.3695
0.3744
0.3783
0.3822
0.3861
0.391
0.3988
0.4076
0.4164
0.4194
0.4194
0.4194
0.4194
0.4115
0.4037
0.3949
0.3871
0.3793
0.3705
0.3627
0.3587
0.3587
0.3587
0.3587
0.3587
0.3587
0.3587
0.3607
0.3695
0.3773
0.3851
0.437
0.5269
0.6168
0.7077
0.7977
0.8876
0.9775
1
0.7048
0.4096
0.1144
0
0.0655
0.131
0.1965
0.2346
0.2678
0.3011
0.3304
0.3382
0.346
0.3548
0.3587
0.3587
0.3587
0.3587
0.3587
0.3587
0.3587
0.3597
0.3636
0.3675
0.3715
0.3763
0.3793
0.3842
0.3881
0.4018
0.4184
0.434
0.4506
0.4673
0.4839
0.5005
0.5093
0.5093
0.5093
0.5093
0.5034
0.4956
0.4878
0.478
0.4536
0.4282
0.4037
0.3861
0.3783
0.3695
0.3617
0.3607
0.3597
0.3597
0.3587
0.3587
0.3587
0.3587
0.3587
0.3587
0.3587
0.3587
0.3587
0.3587
0.3587
0.3587
0.3587
0.3587
0.3587
0.3587
0.3587
0.3587
0.3597
0.3597
0.3597
0.3597
0.3597
0.3597
0.3607
0.3607
0.3607
0.3607
0.3607
0.3607
0.3617
0.3656
0.3695
0.3744
0.3783
0.3822
0.3861
0.391
0.3988
0.4076
0.4164
0.4194
0.4194
0.4194
0.4194
0.4115
0.4037
0.3949
0.3871
0.3793
0.3705
0.3627
0.3587
0.3587
0.3587
0.3587
0.3587
0.3587
0.3587
0.3607
0.3695
0.3773
0.3851
0.437
0.5269
0.6168
0.7077
0.7977
0.8876
0.9775
1
0.7048
0.4096
0.1144
0
0.0655
0.131
0.1965
0.2346
0.2678
0.3011
0.3304
0.3382
0.346
0.3548
0.3587
0.3587
0.3587
0.3587
0.3587
0.3587
0.3587
0.3597
0.3636
0.3675
0.3715
0.3763
0.3793
0.3842
0.3881
0.4018
0.4184
0.434
0.4506
0.4673
0.4839
0.5005
0.5093
0.5093
0.5093
0.5093
0.5034
0.4956
0.4878
0.478
0.4536
0.4282
0.4037
0.3861
0.3783
0.3695
0.3617
0.3607
0.3597
0.3597
0.3587
0.3587
0.3587
0.3587
0.3587
0.3587
0.3587
0.3587
0.3587
0.3587
0.3587
0.3587
0.3587
0.3587
0.3587
0.3587
0.3587
0.3587
0.3597
0.3597
0.3597
0.3597
0.3597
0.3597
0.3607
0.3607
0.3607
0.3607
0.3607
0.3607
0.3617
0.3656
0.3695
0.3744
0.3783
0.3822
0.3861
0.391
0.3988
0.4076
0.4164
0.4194
0.4194
0.4194
0.4194
0.4115
0.4037
0.3949
0.3871
0.3793
0.3705
0.3627
0.3587
0.3587
0.3587
0.3587
0.3587
0.3587
0.3587
0.3607
0.3695
0.3773
0.3851
0.437
0.5269
0.6168
0.7077
0.7977
0.8876
0.9775
1
0.7048
0.4096
0.1144
0
0.0655
0.131
0.1965
0.2346
0.2678
0.3011
0.3304
0.3382
0.346
0.3548
0.3587
0.3587
0.3587
0.3587
0.3587
0.3587
0.3587
0.3597
0.3636
0.3675
0.3715
0.3763
0.3793
0.3842
0.3881
0.4018
0.4184
0.434
0.4506
0.4673
0.4839
0.5005
0.5093
0.5093
0.5093
0.5093
0.5034
0.4956
0.4878
0.478
0.4536
0.4282
0.4037
0.3861
0.3783
0.3695
0.3617
0.3607
0.3597
0.3597
0.3587
0.3587
0.3587
0.3587
0.3587
0.3587
0.3587
0.3587
0.3587
0.3587
0.3587
0.3587
0.3587
0.3587
0.3587
0.3587
0.3587
0.3587
0.3597
0.3597
0.3597
0.3597
0.3597
0.3597
0.3607
0.3607
0.3607
0.3607
0.3607
0.3607
0.3617
0.3656
0.3695
0.3744
0.3783
0.3822
0.3861
0.391
0.3988
0.4076
0.4164
0.4194
0.4194
0.4194
0.4194
0.4115
0.4037
0.3949
0.3871
0.3793
0.3705
0.3627
0.3587
0.3587
0.3587
0.3587
0.3587
0.3587
0.3587
0.3607
0.3695
0.3773
0.3851
0.437
0.5269
0.6168
0.7077
0.7977
0.8876
0.9775
1
0.7048
0.4096
0.1144
0
0.0655
0.131
0.1965
0.2346
0.2678
0.3011
0.3304
0.3382
0.346
0.3548
0.3587
0.3587
0.3587
0.3587
0.3587
0.3587
0.3587
0.3597
0.3636
0.3675
0.3715
0.3763
0.3793
0.3842
0.3881
0.4018
0.4184
0.434
0.4506
0.4673
0.4839
0.5005
0.5093
0.5093
0.5093
0.5093
0.5034
0.4956
0.4878
0.478
0.4536
0.4282
0.4037
0.3861
0.3783
0.3695
0.3617
0.3607
0.3597
0.3597
0.3587
0.3587
0.3587
0.3587
0.3587
0.3587
0.3587
0.3587
0.3587
0.3587
0.3587
0.3587
0.3587
0.3587
0.3587
0.3587
0.3587
0.3587
0.3597
0.3597
0.3597
0.3597
0.3597
0.3597
0.3607
0.3607
0.3607
0.3607
0.3607
0.3607
0.3617
0.3656
0.3695
0.3744
0.3783
0.3822
0.3861
0.391
0.3988
0.4076
0.4164
0.4194
0.4194
0.4194
0.4194
0.4115
0.4037
0.3949
0.3871
0.3793
0.3705
0.3627
0.3587
0.3587
0.3587
0.3587
0.3587
0.3587
0.3587
0.3607
0.3695
0.3773
0.3851
0.437
0.5269
0.6168
0.7077
0.7977
0.8876
0.9775
1
0.7048
0.4096
0.1144
0
0.0655
0.131
0.1965
0.2346
0.2678
0.3011
0.3304
0.3382
0.346
0.3548
0.3587
0.3587
0.3587
0.3587
0.3587
0.3587
0.3587
0.3597
0.3636
0.3675
0.3715
0.3763
0.3793
0.3842
0.3881
0.4018
0.4184
0.434
0.4506
0.4673
0.4839
0.5005
0.5093
0.5093
0.5093
0.5093
0.5034
0.4956
0.4878
0.478
0.4536
0.4282
0.4037
0.3861
0.3783
0.3695
0.3617
0.3607
0.3597
0.3597
0.3587
0.3587
0.3587
0.3587
0.3587
0.3587
0.3587
0.3587
0.3587
0.3587
0.3587
0.3587
0.3587
0.3587
0.3587
0.3587
0.3587
0.3587
0.3597
0.3597
0.3597
0.3597
0.3597
0.3597
0.3607
0.3607
0.3607
0.3607
0.3607
0.3607
0.3617
0.3656
0.3695
0.3744
0.3783
0.3822
0.3861
0.391
0.3988
0.4076
0.4164
0.4194
0.4194
0.4194
0.4194
0.4115
0.4037
0.3949
0.3871
0.3793
0.3705
0.3627
0.3587
0.3587
0.3587
0.3587
0.3587
0.3587
0.3587
0.3607
0.3695
0.3773
0.3851
0.437
0.5269
0.6168
0.7077
0.7977
0.8876
0.9775
1
0.7048
0.4096
0.1144
0
0.0655
0.131
0.1965
0.2346
0.2678
0.3011
0.3304
0.3382
0.346
0.3548
0.3587
0.3587
0.3587
0.3587
0.3587
0.3587
0.3587
0.3597
0.3636
0.3675
0.3715
0.3763
0.3793
0.3842
0.3881
0.4018
0.4184
0.434
0.4506
0.4673
0.4839
0.5005
0.5093
0.5093
0.5093
0.5093
0.5034
0.4956
0.4878
0.478
0.4536
0.4282
0.4037
0.3861
0.3783
0.3695
0.3617
0.3607
0.3597
0.3597
0.3587
0.3587
0.3587
0.3587
0.3587
0.3587
0.3587
0.3587
0.3587
0.3587
0.3587
0.3587
0.3587
0.3587
0.3587
0.3587
0.3587
0.3587
0.3597
0.3597
0.3597
0.3597
0.3597
0.3597
0.3607
0.3607
0.3607
0.3607
0.3607
0.3607
0.3617
0.3656
0.3695
0.3744
0.3783
0.3822
0.3861
0.391
0.3988
0.4076
0.4164
0.4194
0.4194
0.4194
0.4194
0.4115
0.4037
0.3949
0.3871
0.3793
0.3705
0.3627
0.3587
0.3587
0.3587
0.3587
0.3587
0.3587
0.3587
0.3607
0.3695
0.3773
0.3851
0.437
0.5269
0.6168
0.7077
0.7977
0.8876
0.9775
1
0.7048
0.4096
0.1144
0
0.0655
0.131
0.1965
0.2346
0.2678
0.3011
0.3304
0.3382
0.346
0.3548
0.3587
0.3587
0.3587
0.3587
0.3587
0.3587
0.3587
0.3597
0.3636
0.3675
0.3715
0.3763
0.3793
0.3842
0.3881
0.4018
0.4184
0.434
0.4506
0.4673
0.4839
0.5005
0.5093
0.5093
0.5093
0.5093
0.5034
0.4956
0.4878
0.478
0.4536
0.4282
0.4037
0.3861
0.3783
0.3695
0.3617
0.3607
0.3597
0.3597
0.3587
0.3587
0.3587
0.3587
0.3587
0.3587
0.3587
0.3587
0.3587
0.3587
0.3587
0.3587
0.3587
0.3587
0.3587
0.3587
0.3587
0.3587
0.3597
0.3597
0.3597
0.3597
0.3597
0.3597
0.3607
0.3607
0.3607
0.3607
0.3607
0.3607
0.3617
0.3656
0.3695
0.3744
0.3783
0.3822
0.3861
0.391
0.3988
0.4076
0.4164
0.4194
0.4194
0.4194
0.4194
0.4115
0.4037
0.3949
0.3871
0.3793
0.3705
0.3627
0.3587
0.3587
0.3587
0.3587
0.3587
0.3587
0.3587
0.3607
0.3695
0.3773
0.3851
0.437
0.5269
0.6168
0.7077
0.7977
0.8876
0.9775
1
0.7048
0.4096
0.1144
0
0.0655
0.131
0.1965
0.2346
0.2678
0.3011
0.3304
0.3382
0.346
0.3548
0.3587
0.3587
0.3587
0.3587
0.3587
0.3587
0.3587
0.3597
0.3636
0.3675
0.3715
0.3763
0.3793
0.3842
0.3881
0.4018
0.4184
0.434
0.4506
0.4673
0.4839
0.5005
0.5093
0.5093
0.5093
0.5093
0.5034
0.4956
0.4878
0.478
0.4536
0.4282
0.4037
0.3861
0.3783
0.3695
0.3617
0.3607
0.3597
0.3597
0.3587
0.3587
0.3587
0.3587
0.3587
0.3587
0.3587
0.3587
0.3587
0.3587
0.3587
0.3587
0.3587
0.3587
0.3587
0.3587
0.3587
0.3587
0.3597
0.3597
0.3597
0.3597
0.3597
0.3597
0.3607
0.3607
0.3607
0.3607
0.3607
0.3607
0.3617
0.3656
0.3695
0.3744
0.3783
0.3822
0.3861
0.391
0.3988
0.4076
0.4164
0.4194
0.4194
0.4194
0.4194
0.4115
0.4037
0.3949
0.3871
0.3793
0.3705
0.3627
0.3587
0.3587
0.3587
0.3587
0.3587
0.3587
0.3587
0.3607
0.3695
0.3773
0.3851
0.437
0.5269
0.6168
0.7077
0.7977
0.8876
0.9775
1
0.7048
0.4096
0.1144
0
0.0655
0.131
0.1965
0.2346
0.2678
0.3011
0.3304
0.3382
0.346
0.3548
0.3587
0.3587
0.3587
0.3587
0.3587
0.3587
0.3587
0.3597
0.3636
0.3675
0.3715
0.3763
0.3793
0.3842
0.3881
0.4018
0.4184
0.434
0.4506
0.4673
0.4839
0.5005
0.5093
0.5093
0.5093
0.5093
0.5034
0.4956
0.4878
0.478
0.4536
0.4282
0.4037
0.3861
0.3783
0.3695
0.3617
0.3607
0.3597
0.3597
0.3587
0.3587
0.3587
0.3587
0.3587
0.3587
0.3587
0.3587
0.3587
0.3587
0.3587
0.3587
0.3587
0.3587
0.3587
0.3587
0.3587
0.3587
0.3597
0.3597
0.3597
0.3597
0.3597
0.3597
0.3607
0.3607
0.3607
0.3607
0.3607
0.3607
0.3617
0.3656
0.3695
0.3744
0.3783
0.3822
0.3861
0.391
0.3988
0.4076
0.4164
0.4194
0.4194
0.4194
0.4194
0.4115
0.4037
0.3949
0.3871
0.3793
0.3705
0.3627
0.3587
0.3587
0.3587
0.3587
0.3587
0.3587
0.3587
0.3607
0.3695
0.3773
0.3851
0.437
0.5269
0.6168
0.7077
0.7977
0.8876
0.9775
1
0.7048
0.4096
0.1144
0
0.0655
0.131
0.1965
0.2346
0.2678
0.3011
0.3304
0.3382
0.346
0.3548
0.3587
0.3587
0.3587
0.3587
0.3587
0.3587
0.3587
0.3597
0.3636
0.3675
0.3715
0.3763
0.3793
0.3842
0.3881
0.4018
0.4184
0.434
0.4506
0.4673
0.4839
0.5005
0.5093
0.5093
0.5093
0.5093
0.5034
0.4956
0.4878
0.478
0.4536
0.4282
0.4037
0.3861
0.3783
0.3695
0.3617
0.3607
0.3597
0.3597
0.3587
0.3587
0.3587
0.3587
0.3587
0.3587
0.3587
0.3587
0.3587
0.3587
0.3587
0.3587
0.3587
0.3587
0.3587
0.3587
0.3587
0.3587
0.3597
0.3597
0.3597
0.3597
0.3597
0.3597
0.3607
0.3607
0.3607
0.3607
0.3607
0.3607
0.3617
0.3656
0.3695
0.3744
0.3783
0.3822
0.3861
0.391
0.3988
0.4076
0.4164
0.4194
0.4194
0.4194
0.4194
0.4115
0.4037
0.3949
0.3871
0.3793
0.3705
0.3627
0.3587
0.3587
0.3587
0.3587
0.3587
0.3587
0.3587
0.3607
0.3695
0.3773
0.3851
0.437
0.5269
0.6168
0.7077
0.7977
0.8876
0.9775
1
0.7048
0.4096
0.1144
0
0.0655
0.131
0.1965
0.2346
0.2678
0.3011
0.3304
0.3382
0.346
0.3548
0.3587
0.3587
0.3587
0.3587
0.3587
0.3587
0.3587
0.3597
0.3636
0.3675
0.3715
0.3763
0.3793
0.3842
0.3881
0.4018
0.4184
0.434
0.4506
0.4673
0.4839
0.5005
0.5093
0.5093
0.5093
0.5093
0.5034
0.4956
0.4878
0.478
0.4536
0.4282
0.4037
0.3861
0.3783
0.3695
0.3617
0.3607
0.3597
0.3597
0.3587
0.3587
0.3587
0.3587
0.3587
0.3587
0.3587
0.3587
0.3587
0.3587
0.3587
0.3587
0.3587
0.3587
0.3587
0.3587
0.3587
0.3587
0.3597
0.3597
0.3597
0.3597
0.3597
0.3597
0.3607
0.3607
0.3607
0.3607
0.3607
0.3607
0.3617
0.3656
0.3695
0.3744
0.3783
0.3822
0.3861
0.391
0.3988
0.4076
0.4164
0.4194
0.4194
0.4194
0.4194
0.4115
0.4037
0.3949
0.3871
0.3793
0.3705
0.3627
0.3587
0.3587
0.3587
0.3587
0.3587
0.3587
0.3587
0.3607
0.3695
0.3773
0.3851
0.437
0.5269
0.6168
0.7077
0.7977
0.8876
0.9775
1
0.7048
0.4096
0.1144
0
0.0655
0.131
0.1965
0.2346
0.2678
0.3011
0.3304
0.3382
0.346
0.3548
0.3587
0.3587
0.3587
0.3587
0.3587
0.3587
0.3587
0.3597
0.3636
0.3675
0.3715
0.3763
0.3793
0.3842
0.3881
0.4018
0.4184
0.434
0.4506
0.4673
0.4839
0.5005
0.5093
0.5093
0.5093
0.5093
0.5034
0.4956
0.4878
0.478
0.4536
0.4282
0.4037
0.3861
0.3783
0.3695
0.3617
0.3607
0.3597
0.3597
0.3587
0.3587
0.3587
0.3587
0.3587
0.3587
0.3587
0.3587
0.3587
0.3587
0.3587
0.3587
0.3587
0.3587
0.3587
0.3587
0.3587
0.3587
0.3597
0.3597
0.3597
0.3597
0.3597
0.3597
0.3607
0.3607
0.3607
0.3607
0.3607
0.3607
0.3617
0.3656
0.3695
0.3744
0.3783
0.3822
0.3861
0.391
0.3988
0.4076
0.4164
0.4194
0.4194
0.4194
0.4194
0.4115
0.4037
0.3949
0.3871
0.3793
0.3705
0.3627
0.3587
0.3587
0.3587
0.3587
0.3587
0.3587
0.3587
0.3607
0.3695
0.3773
0.3851
0.437
0.5269
0.6168
0.7077
0.7977
0.8876
0.9775
1
0.7048
0.4096
0.1144
0
0.0655
0.131
0.1965
0.2346
0.2678
0.3011
0.3304
0.3382
0.346
0.3548
0.3587
0.3587
0.3587
0.3587
0.3587
0.3587
0.3587
0.3597
0.3636
0.3675
0.3715
0.3763
0.3793
0.3842
0.3881
0.4018
0.4184
0.434
0.4506
0.4673
0.4839
0.5005
0.5093
0.5093
0.5093
0.5093
0.5034
0.4956
0.4878
0.478
0.4536
0.4282
0.4037
0.3861
0.3783
0.3695
0.3617
0.3607
0.3597
0.3597
0.3587
0.3587
0.3587
0.3587
0.3587
0.3587
0.3587
0.3587
0.3587
0.3587
0.3587
0.3587
0.3587
0.3587
0.3587
0.3587
0.3587
0.3587
0.3597
0.3597
0.3597
0.3597
0.3597
0.3597
0.3607
0.3607
0.3607
0.3607
0.3607
0.3607
0.3617
0.3656
0.3695
0.3744
0.3783
0.3822
0.3861
0.391
0.3988
0.4076
0.4164
0.4194
0.4194
0.4194
0.4194
0.4115
0.4037
0.3949
0.3871
0.3793
0.3705
0.3627
0.3587
0.3587
0.3587
0.3587
0.3587
0.3587
0.3587
0.3607
0.3695
0.3773
0.3851
0.437
0.5269
0.6168
0.7077
0.7977
0.8876
0.9775
1
0.7048
0.4096
0.1144
0
0.0655
0.131
0.1965
0.2346
0.2678
0.3011
0.3304
0.3382
0.346
0.3548
0.3587
0.3587
0.3587
0.3587
0.3587
0.3587
0.3587
0.3597
0.3636
0.3675
0.3715
0.3763
0.3793
0.3842
0.3881
0.4018
0.4184
0.434
0.4506
0.4673
0.4839
0.5005
0.5093
0.5093
0.5093
0.5093
0.5034
0.4956
0.4878
0.478
0.4536
0.4282
0.4037
0.3861
0.3783
0.3695
0.3617
0.3607
0.3597
0.3597
0.3587
0.3587
0.3587
0.3587
0.3587
0.3587
0.3587
0.3587
0.3587
0.3587
0.3587
0.3587
0.3587
0.3587
0.3587
0.3587
0.3587
0.3587
0.3597
0.3597
0.3597
0.3597
0.3597
0.3597
0.3607
0.3607
0.3607
0.3607
0.3607
0.3607
0.3617
0.3656
0.3695
0.3744
0.3783
0.3822
0.3861
0.391
0.3988
0.4076
0.4164
0.4194
0.4194
0.4194
0.4194
0.4115
0.4037
0.3949
0.3871
0.3793
0.3705
0.3627
0.3587
0.3587
0.3587
0.3587
0.3587
0.3587
0.3587
0.3607
0.3695
0.3773
0.3851
0.437
0.5269
0.6168
0.7077
0.7977
0.8876
0.9775
1
0.7048
0.4096
0.1144
0
0.0655
0.131
0.1965